# Rescaled matter transfer functions [-T_i(k)/k^2] for adiabatic (AD) mode (normalized to initial curvature=1) at redshift z=7
# for k=2.09784e-07 to 62.6686 h/Mpc,
# number of wavenumbers equal to 7329
# T_i   stands for (delta rho_i/rho_i)(k,z) with above normalization 
# The rescaling factor [-1/k^2] with k in 1/Mpc is here to match the CMBFAST/CAMB output convention
#
#
#    1:k (h/Mpc)              2:-T_cdm/k2              3:-T_b/k2                4:-T_g/k2                5:-T_ur/k2               6:-T_ncdm/k2             7:-T_tot/k2          
       2.097837633412e-07       3.126926724328e+06       3.126926724323e+06       4.169235509000e+06       4.169235507737e+06       3.133636377201e+06       3.115866470312e+06 
       8.595313974600e-07       3.126926708242e+06       3.126926708149e+06       4.169233538809e+06       4.169233517609e+06       3.133636259154e+06       3.115866449883e+06 
       1.509283122667e-06       3.126926672605e+06       3.126926672320e+06       4.169229174293e+06       4.169229108927e+06       3.133635997648e+06       3.115866404626e+06 
       2.159043376662e-06       3.126926617418e+06       3.126926616834e+06       4.169222415359e+06       4.169222281598e+06       3.133635592676e+06       3.115866334541e+06 
       2.808816597307e-06       3.126926542680e+06       3.126926541690e+06       4.169213261853e+06       4.169213035466e+06       3.133635044229e+06       3.115866239626e+06 
       3.458607222722e-06       3.126926448387e+06       3.126926446887e+06       4.169201713560e+06       4.169201370313e+06       3.133634352293e+06       3.115866119878e+06 
       4.108419691390e-06       3.126926334539e+06       3.126926332422e+06       4.169187770202e+06       4.169187285860e+06       3.133633516852e+06       3.115865975295e+06 
       4.758258442257e-06       3.126926201131e+06       3.126926198292e+06       4.169171431440e+06       4.169170781765e+06       3.133632537882e+06       3.115865805873e+06 
       5.408127914833e-06       3.126926048161e+06       3.126926044494e+06       4.169152696874e+06       4.169151857623e+06       3.133631415360e+06       3.115865611608e+06 
       6.058032549292e-06       3.126925875624e+06       3.126925871023e+06       4.169131566042e+06       4.169130512968e+06       3.133630149255e+06       3.115865392494e+06 
       6.707976786575e-06       3.126925683517e+06       3.126925677875e+06       4.169108038419e+06       4.169106747272e+06       3.133628739536e+06       3.115865148527e+06 
       7.357965068491e-06       3.126925471834e+06       3.126925465046e+06       4.169082113421e+06       4.169080559944e+06       3.133627186165e+06       3.115864879698e+06 
       8.008001837816e-06       3.126925240569e+06       3.126925232528e+06       4.169053790399e+06       4.169051950331e+06       3.133625489102e+06       3.115864586003e+06 
       8.658091538396e-06       3.126924989716e+06       3.126924980317e+06       4.169023068646e+06       4.169020917718e+06       3.133623648301e+06       3.115864267432e+06 
       9.308238615249e-06       3.126924719269e+06       3.126924708406e+06       4.168989947390e+06       4.168987461326e+06       3.133621663715e+06       3.115863923979e+06 
       9.958447514662e-06       3.126924429221e+06       3.126924416787e+06       4.168954425799e+06       4.168951580316e+06       3.133619535290e+06       3.115863555632e+06 
       1.060872268430e-05       3.126924119563e+06       3.126924105453e+06       4.168916502979e+06       4.168913273785e+06       3.133617262972e+06       3.115863162384e+06 
       1.125906857330e-05       3.126923790289e+06       3.126923774395e+06       4.168876177973e+06       4.168872540769e+06       3.133614846699e+06       3.115862744223e+06 
       1.190948963238e-05       3.126923441388e+06       3.126923423605e+06       4.168833449763e+06       4.168829380239e+06       3.133612286407e+06       3.115862301139e+06 
       1.255999031392e-05       3.126923072852e+06       3.126923053073e+06       4.168788317270e+06       4.168783791107e+06       3.133609582029e+06       3.115861833120e+06 
       1.321057507210e-05       3.126922684671e+06       3.126922662790e+06       4.168740779350e+06       4.168735772220e+06       3.133606733493e+06       3.115861340154e+06 
       1.386124836297e-05       3.126922276834e+06       3.126922252745e+06       4.168690834800e+06       4.168685322362e+06       3.133603740722e+06       3.115860822227e+06 
       1.451201464457e-05       3.126921849331e+06       3.126921822926e+06       4.168638482354e+06       4.168632440257e+06       3.133600603638e+06       3.115860279326e+06 
       1.516287837701e-05       3.126921402149e+06       3.126921373324e+06       4.168583720683e+06       4.168577124562e+06       3.133597322157e+06       3.115859711437e+06 
       1.581384402259e-05       3.126920935279e+06       3.126920903925e+06       4.168526548396e+06       4.168519373876e+06       3.133593896190e+06       3.115859118545e+06 
       1.646491604592e-05       3.126920448706e+06       3.126920414717e+06       4.168466964040e+06       4.168459186732e+06       3.133590325648e+06       3.115858500633e+06 
       1.711609891398e-05       3.126919942417e+06       3.126919905687e+06       4.168404966101e+06       4.168396561600e+06       3.133586610434e+06       3.115857857685e+06 
       1.776739709623e-05       3.126919416400e+06       3.126919376822e+06       4.168340552999e+06       4.168331496889e+06       3.133582750449e+06       3.115857189685e+06 
       1.841881506476e-05       3.126918870640e+06       3.126918828106e+06       4.168273723095e+06       4.168263990943e+06       3.133578745590e+06       3.115856496615e+06 
       1.907035729432e-05       3.126918305123e+06       3.126918259526e+06       4.168204474686e+06       4.168194042044e+06       3.133574595750e+06       3.115855778456e+06 
       1.972202826248e-05       3.126917719832e+06       3.126917671067e+06       4.168132806006e+06       4.168121648411e+06       3.133570300817e+06       3.115855035190e+06 
       2.037383244971e-05       3.126917114754e+06       3.126917062711e+06       4.168058715227e+06       4.168046808198e+06       3.133565860678e+06       3.115854266795e+06 
       2.102577433947e-05       3.126916489870e+06       3.126916434444e+06       4.167982200457e+06       4.167969519497e+06       3.133561275212e+06       3.115853473253e+06 
       2.167785841835e-05       3.126915845165e+06       3.126915786248e+06       4.167903259743e+06       4.167889780337e+06       3.133556544296e+06       3.115852654542e+06 
       2.233008917613e-05       3.126915180622e+06       3.126915118106e+06       4.167821891068e+06       4.167807588682e+06       3.133551667805e+06       3.115851810640e+06 
       2.298247110590e-05       3.126914496221e+06       3.126914429999e+06       4.167738092351e+06       4.167722942433e+06       3.133546645607e+06       3.115850941524e+06 
       2.363500870419e-05       3.126913791946e+06       3.126913721910e+06       4.167651861449e+06       4.167635839428e+06       3.133541477566e+06       3.115850047172e+06 
       2.428770647102e-05       3.126913067776e+06       3.126912993819e+06       4.167563196155e+06       4.167546277439e+06       3.133536163545e+06       3.115849127560e+06 
       2.494056891004e-05       3.126912323693e+06       3.126912245706e+06       4.167472094199e+06       4.167454254176e+06       3.133530703401e+06       3.115848182662e+06 
       2.559360052864e-05       3.126911559676e+06       3.126911477552e+06       4.167378553248e+06       4.167359767285e+06       3.133525096985e+06       3.115847212455e+06 
       2.624680583802e-05       3.126910775705e+06       3.126910689336e+06       4.167282570905e+06       4.167262814346e+06       3.133519344149e+06       3.115846216911e+06 
       2.690018935332e-05       3.126909971758e+06       3.126909881036e+06       4.167184144708e+06       4.167163392876e+06       3.133513444736e+06       3.115845196005e+06 
       2.755375559371e-05       3.126909147814e+06       3.126909052631e+06       4.167083272133e+06       4.167061500329e+06       3.133507398588e+06       3.115844149709e+06 
       2.820750908251e-05       3.126908303851e+06       3.126908204098e+06       4.166979950592e+06       4.166957134091e+06       3.133501205542e+06       3.115843077995e+06 
       2.886145434727e-05       3.126907439846e+06       3.126907335414e+06       4.166874177431e+06       4.166850291487e+06       3.133494865431e+06       3.115841980834e+06 
       2.951559591991e-05       3.126906555775e+06       3.126906446556e+06       4.166765949935e+06       4.166740969775e+06       3.133488378083e+06       3.115840858197e+06 
       3.016993833678e-05       3.126905651615e+06       3.126905537499e+06       4.166655265321e+06       4.166629166147e+06       3.133481743325e+06       3.115839710055e+06 
       3.082448613880e-05       3.126904727341e+06       3.126904608220e+06       4.166542120744e+06       4.166514877735e+06       3.133474960976e+06       3.115838536375e+06 
       3.147924387154e-05       3.126903782928e+06       3.126903658693e+06       4.166426513294e+06       4.166398101599e+06       3.133468030854e+06       3.115837337127e+06 
       3.213421608535e-05       3.126902818350e+06       3.126902688892e+06       4.166308439996e+06       4.166278834740e+06       3.133460952770e+06       3.115836112279e+06 
       3.278940733546e-05       3.126901833582e+06       3.126901698791e+06       4.166187897811e+06       4.166157074090e+06       3.133453726535e+06       3.115834861798e+06 
       3.344482218204e-05       3.126900828596e+06       3.126900688364e+06       4.166064883633e+06       4.166032816515e+06       3.133446351951e+06       3.115833585649e+06 
       3.410046519039e-05       3.126899803366e+06       3.126899657582e+06       4.165939394294e+06       4.165906058819e+06       3.133438828820e+06       3.115832283800e+06 
       3.475634093096e-05       3.126898757863e+06       3.126898606417e+06       4.165811426557e+06       4.165776797736e+06       3.133431156938e+06       3.115830956214e+06 
       3.541245397951e-05       3.126897692059e+06       3.126897534842e+06       4.165680977123e+06       4.165645029935e+06       3.133423336097e+06       3.115829602856e+06 
       3.606880891720e-05       3.126896605925e+06       3.126896442827e+06       4.165548042626e+06       4.165510752022e+06       3.133415366084e+06       3.115828223690e+06 
       3.672541033069e-05       3.126895499432e+06       3.126895330343e+06       4.165412619633e+06       4.165373960533e+06       3.133407246685e+06       3.115826818679e+06 
       3.738226281227e-05       3.126894372550e+06       3.126894197358e+06       4.165274704648e+06       4.165234651938e+06       3.133398977678e+06       3.115825387784e+06 
       3.803937095992e-05       3.126893225247e+06       3.126893043843e+06       4.165134294106e+06       4.165092822643e+06       3.133390558838e+06       3.115823930968e+06 
       3.869673937747e-05       3.126892057494e+06       3.126891869766e+06       4.164991384378e+06       4.164948468984e+06       3.133381989938e+06       3.115822448191e+06 
       3.935437267467e-05       3.126890869256e+06       3.126890675094e+06       4.164845971767e+06       4.164801587232e+06       3.133373270744e+06       3.115820939412e+06 
       4.001227546732e-05       3.126889660504e+06       3.126889459796e+06       4.164698052511e+06       4.164652173589e+06       3.133364401019e+06       3.115819404592e+06 
       4.067045237736e-05       3.126888431202e+06       3.126888223838e+06       4.164547622781e+06       4.164500224194e+06       3.133355380522e+06       3.115817843688e+06 
       4.132890803299e-05       3.126887181319e+06       3.126886967187e+06       4.164394678679e+06       4.164345735112e+06       3.133346209007e+06       3.115816256660e+06 
       4.198764706876e-05       3.126885910819e+06       3.126885689808e+06       4.164239216243e+06       4.164188702347e+06       3.133336886224e+06       3.115814643463e+06 
       4.264667412571e-05       3.126884619669e+06       3.126884391666e+06       4.164081231442e+06       4.164029121829e+06       3.133327411920e+06       3.115813004054e+06 
       4.330599385144e-05       3.126883307832e+06       3.126883072726e+06       4.163920720178e+06       4.163866989426e+06       3.133317785836e+06       3.115811338388e+06 
       4.396561090026e-05       3.126881975274e+06       3.126881732951e+06       4.163757678284e+06       4.163702300932e+06       3.133308007708e+06       3.115809646422e+06 
       4.462552993326e-05       3.126880621956e+06       3.126880372306e+06       4.163592101528e+06       4.163535052077e+06       3.133298077271e+06       3.115807928108e+06 
       4.528575561844e-05       3.126879247843e+06       3.126878990752e+06       4.163423985608e+06       4.163365238519e+06       3.133287994254e+06       3.115806183400e+06 
       4.594629263082e-05       3.126877852897e+06       3.126877588252e+06       4.163253326153e+06       4.163192855851e+06       3.133277758379e+06       3.115804412252e+06 
       4.660714565253e-05       3.126876437079e+06       3.126876164768e+06       4.163080118727e+06       4.163017899593e+06       3.133267369368e+06       3.115802614614e+06 
       4.726831937296e-05       3.126875000351e+06       3.126874720260e+06       4.162904358821e+06       4.162840365199e+06       3.133256826936e+06       3.115800790438e+06 
       4.792981848882e-05       3.126873542673e+06       3.126873254689e+06       4.162726041861e+06       4.162660248051e+06       3.133246130795e+06       3.115798939675e+06 
       4.859164770428e-05       3.126872064006e+06       3.126871768015e+06       4.162545163201e+06       4.162477543463e+06       3.133235280652e+06       3.115797062274e+06 
       4.925381173108e-05       3.126870564308e+06       3.126870260196e+06       4.162361718128e+06       4.162292246679e+06       3.133224276208e+06       3.115795158184e+06 
       4.991631528865e-05       3.126869043538e+06       3.126868731192e+06       4.162175701858e+06       4.162104352872e+06       3.133213117163e+06       3.115793227353e+06 
       5.057916310418e-05       3.126867501655e+06       3.126867180960e+06       4.161987109538e+06       4.161913857145e+06       3.133201803210e+06       3.115791269729e+06 
       5.124235991278e-05       3.126865938616e+06       3.126865609457e+06       4.161795936244e+06       4.161720754530e+06       3.133190334037e+06       3.115789285258e+06 
       5.190591045756e-05       3.126864354378e+06       3.126864016641e+06       4.161602176984e+06       4.161525039991e+06       3.133178709331e+06       3.115787273887e+06 
       5.256981948976e-05       3.126862748897e+06       3.126862402467e+06       4.161405826694e+06       4.161326708417e+06       3.133166928772e+06       3.115785235560e+06 
       5.323409176885e-05       3.126861122130e+06       3.126860766890e+06       4.161206880239e+06       4.161125754628e+06       3.133154992034e+06       3.115783170222e+06 
       5.389873206264e-05       3.126859474030e+06       3.126859109867e+06       4.161005332415e+06       4.160922173373e+06       3.133142898790e+06       3.115781077816e+06 
       5.456374514741e-05       3.126857804553e+06       3.126857431350e+06       4.160801177946e+06       4.160715959328e+06       3.133130648706e+06       3.115778958285e+06 
       5.522913580803e-05       3.126856113653e+06       3.126855731294e+06       4.160594411483e+06       4.160507107096e+06       3.133118241445e+06       3.115776811571e+06 
       5.589490883802e-05       3.126854401282e+06       3.126854009651e+06       4.160385027607e+06       4.160295611211e+06       3.133105676664e+06       3.115774637616e+06 
       5.656106903973e-05       3.126852667394e+06       3.126852266374e+06       4.160173020828e+06       4.160081466132e+06       3.133092954016e+06       3.115772436360e+06 
       5.722762122441e-05       3.126850911940e+06       3.126850501415e+06       4.159958385582e+06       4.159864666247e+06       3.133080073151e+06       3.115770207742e+06 
       5.789457021235e-05       3.126849134872e+06       3.126848714724e+06       4.159741116234e+06       4.159645205868e+06       3.133067033711e+06       3.115767951701e+06 
       5.856192083299e-05       3.126847336140e+06       3.126846906252e+06       4.159521207076e+06       4.159423079237e+06       3.133053835336e+06       3.115765668176e+06 
       5.922967792499e-05       3.126845515695e+06       3.126845075950e+06       4.159298652326e+06       4.159198280521e+06       3.133040477661e+06       3.115763357104e+06 
       5.989784633644e-05       3.126843673485e+06       3.126843223765e+06       4.159073446131e+06       4.158970803813e+06       3.133026960315e+06       3.115761018421e+06 
       6.056643092489e-05       3.126841809460e+06       3.126841349647e+06       4.158845582562e+06       4.158740643132e+06       3.133013282925e+06       3.115758652063e+06 
       6.123543655749e-05       3.126839923569e+06       3.126839453544e+06       4.158615055619e+06       4.158507792425e+06       3.132999445109e+06       3.115756257964e+06 
       6.190486811114e-05       3.126838015757e+06       3.126837535402e+06       4.158381859226e+06       4.158272245560e+06       3.132985446486e+06       3.115753836060e+06 
       6.257473047255e-05       3.126836085973e+06       3.126835595169e+06       4.158145987234e+06       4.158033996333e+06       3.132971286664e+06       3.115751386283e+06 
       6.324502853841e-05       3.126834134163e+06       3.126833632790e+06       4.157907433418e+06       4.157793038465e+06       3.132956965251e+06       3.115748908565e+06 
       6.391576721547e-05       3.126832160271e+06       3.126831648211e+06       4.157666191479e+06       4.157549365599e+06       3.132942481848e+06       3.115746402838e+06 
       6.458695142069e-05       3.126830164243e+06       3.126829641375e+06       4.157422255043e+06       4.157302971306e+06       3.132927836052e+06       3.115743869034e+06 
       6.525858608131e-05       3.126828146024e+06       3.126827612228e+06       4.157175617661e+06       4.157053849077e+06       3.132913027455e+06       3.115741307081e+06 
       6.593067613504e-05       3.126826105557e+06       3.126825560712e+06       4.156926272807e+06       4.156801992329e+06       3.132898055643e+06       3.115738716910e+06 
       6.660322653011e-05       3.126824042784e+06       3.126823486770e+06       4.156674213879e+06       4.156547394401e+06       3.132882920200e+06       3.115736098447e+06 
       6.727624222542e-05       3.126821957648e+06       3.126821390343e+06       4.156419434200e+06       4.156290048557e+06       3.132867620701e+06       3.115733451622e+06 
       6.794972819066e-05       3.126819850090e+06       3.126819271374e+06       4.156161927016e+06       4.156029947981e+06       3.132852156720e+06       3.115730776360e+06 
       6.862368940644e-05       3.126817720052e+06       3.126817129803e+06       4.155901685494e+06       4.155767085781e+06       3.132836527824e+06       3.115728072587e+06 
       6.929813086438e-05       3.126815567474e+06       3.126814965569e+06       4.155638702726e+06       4.155501454986e+06       3.132820733576e+06       3.115725340229e+06 
       6.997305756726e-05       3.126813392295e+06       3.126812778612e+06       4.155372971726e+06       4.155233048549e+06       3.132804773532e+06       3.115722579208e+06 
       7.064847452913e-05       3.126811194453e+06       3.126810568871e+06       4.155104485429e+06       4.154961859340e+06       3.132788647246e+06       3.115719789449e+06 
       7.132438677542e-05       3.126808973888e+06       3.126808336282e+06       4.154833236692e+06       4.154687880155e+06       3.132772354264e+06       3.115716970874e+06 
