# Rescaled matter transfer functions [-T_i(k)/k^2] for adiabatic (AD) mode (normalized to initial curvature=1) at redshift z=1
# for k=2.09784e-07 to 62.6686 h/Mpc,
# number of wavenumbers equal to 7329
# T_i   stands for (delta rho_i/rho_i)(k,z) with above normalization 
# The rescaling factor [-1/k^2] with k in 1/Mpc is here to match the CMBFAST/CAMB output convention
#
#
#    1:k (h/Mpc)              2:-T_cdm/k2              3:-T_b/k2                4:-T_g/k2                5:-T_ur/k2               6:-T_ncdm/k2             7:-T_tot/k2          
       2.097837633412e-07       1.200402530896e+07       1.200402530884e+07       1.600536520266e+07       1.600536515536e+07       1.200565188180e+07       9.443066068784e+06 
       8.595313974600e-07       1.200402522149e+07       1.200402521951e+07       1.600533546990e+07       1.600533467585e+07       1.200565159162e+07       9.443065987166e+06 
       1.509283122667e-06       1.200402502773e+07       1.200402502161e+07       1.600526960377e+07       1.600526715548e+07       1.200565094880e+07       9.443065806359e+06 
       2.159043376662e-06       1.200402472765e+07       1.200402471514e+07       1.600516760321e+07       1.600516259314e+07       1.200564995331e+07       9.443065526360e+06 
       2.808816597307e-06       1.200402432127e+07       1.200402430009e+07       1.600502946636e+07       1.600502098697e+07       1.200564860513e+07       9.443065147161e+06 
       3.458607222722e-06       1.200402380857e+07       1.200402377646e+07       1.600485519066e+07       1.600484233433e+07       1.200564690424e+07       9.443064668755e+06 
       4.108419691390e-06       1.200402318953e+07       1.200402314423e+07       1.600464477274e+07       1.600462663180e+07       1.200564485058e+07       9.443064091130e+06 
       4.758258442257e-06       1.200402246415e+07       1.200402240337e+07       1.600439820852e+07       1.600437387521e+07       1.200564244412e+07       9.443063414272e+06 
       5.408127914833e-06       1.200402163240e+07       1.200402155389e+07       1.600411549313e+07       1.600408405960e+07       1.200563968477e+07       9.443062638164e+06 
       6.058032549292e-06       1.200402069426e+07       1.200402059575e+07       1.600379662098e+07       1.600375717924e+07       1.200563657248e+07       9.443061762788e+06 
       6.707976786575e-06       1.200401964971e+07       1.200401952893e+07       1.600344158569e+07       1.600339322764e+07       1.200563310717e+07       9.443060788121e+06 
       7.357965068491e-06       1.200401849872e+07       1.200401835340e+07       1.600305038014e+07       1.600299219754e+07       1.200562928873e+07       9.443059714139e+06 
       8.008001837816e-06       1.200401724127e+07       1.200401706913e+07       1.600262299646e+07       1.600255408089e+07       1.200562511709e+07       9.443058540817e+06 
       8.658091538396e-06       1.200401587731e+07       1.200401567610e+07       1.600215942602e+07       1.600207886889e+07       1.200562059211e+07       9.443057268124e+06 
       9.308238615249e-06       1.200401440682e+07       1.200401417425e+07       1.600165965942e+07       1.600156655196e+07       1.200561571370e+07       9.443055896029e+06 
       9.958447514662e-06       1.200401282975e+07       1.200401256356e+07       1.600112368652e+07       1.600101711974e+07       1.200561048171e+07       9.443054424498e+06 
       1.060872268430e-05       1.200401114607e+07       1.200401084399e+07       1.600055149642e+07       1.600043056111e+07       1.200560489602e+07       9.443052853493e+06 
       1.125906857330e-05       1.200400935573e+07       1.200400901548e+07       1.599994307747e+07       1.599980686417e+07       1.200559895647e+07       9.443051182976e+06 
       1.190948963238e-05       1.200400745869e+07       1.200400707799e+07       1.599929841724e+07       1.599914601625e+07       1.200559266291e+07       9.443049412903e+06 
       1.255999031392e-05       1.200400545490e+07       1.200400503148e+07       1.599861750256e+07       1.599844800391e+07       1.200558601517e+07       9.443047543232e+06 
       1.321057507210e-05       1.200400334429e+07       1.200400287588e+07       1.599790031949e+07       1.599771281292e+07       1.200557901309e+07       9.443045573914e+06 
       1.386124836297e-05       1.200400112683e+07       1.200400061115e+07       1.599714685336e+07       1.599694042830e+07       1.200557165646e+07       9.443043504900e+06 
       1.451201464457e-05       1.200399880245e+07       1.200399823721e+07       1.599635708871e+07       1.599613083428e+07       1.200556394511e+07       9.443041336138e+06 
       1.516287837701e-05       1.200399637109e+07       1.200399575402e+07       1.599553100933e+07       1.599528401432e+07       1.200555587882e+07       9.443039067572e+06 
       1.581384402259e-05       1.200399383269e+07       1.200399316151e+07       1.599466859826e+07       1.599439995110e+07       1.200554745738e+07       9.443036699147e+06 
       1.646491604592e-05       1.200399118717e+07       1.200399045961e+07       1.599376983776e+07       1.599347862653e+07       1.200553868058e+07       9.443034230801e+06 
       1.711609891398e-05       1.200398843448e+07       1.200398764824e+07       1.599283470936e+07       1.599252002175e+07       1.200552954816e+07       9.443031662472e+06 
       1.776739709623e-05       1.200398557454e+07       1.200398472734e+07       1.599186319379e+07       1.599152411710e+07       1.200552005991e+07       9.443028994095e+06 
       1.841881506476e-05       1.200398260728e+07       1.200398169683e+07       1.599085527104e+07       1.599049089217e+07       1.200551021555e+07       9.443026225603e+06 
       1.907035729432e-05       1.200397953261e+07       1.200397855663e+07       1.598981092036e+07       1.598942032576e+07       1.200550001484e+07       9.443023356925e+06 
       1.972202826248e-05       1.200397635046e+07       1.200397530665e+07       1.598873012019e+07       1.598831239588e+07       1.200548945750e+07       9.443020387989e+06 
       2.037383244971e-05       1.200397306075e+07       1.200397194682e+07       1.598761284824e+07       1.598716707979e+07       1.200547854325e+07       9.443017318718e+06 
       2.102577433947e-05       1.200396966338e+07       1.200396847705e+07       1.598645908145e+07       1.598598435394e+07       1.200546727180e+07       9.443014149036e+06 
       2.167785841835e-05       1.200396615826e+07       1.200396489724e+07       1.598526879599e+07       1.598476419401e+07       1.200545564285e+07       9.443010878861e+06 
       2.233008917613e-05       1.200396254532e+07       1.200396120729e+07       1.598404196726e+07       1.598350657492e+07       1.200544365609e+07       9.443007508111e+06 
       2.298247110590e-05       1.200395882444e+07       1.200395740712e+07       1.598277856991e+07       1.598221147079e+07       1.200543131120e+07       9.443004036699e+06 
       2.363500870419e-05       1.200395499554e+07       1.200395349663e+07       1.598147857782e+07       1.598087885494e+07       1.200541860785e+07       9.443000464537e+06 
       2.428770647102e-05       1.200395105851e+07       1.200394947571e+07       1.598014196408e+07       1.597950869994e+07       1.200540554571e+07       9.442996791534e+06 
       2.494056891004e-05       1.200394701325e+07       1.200394534425e+07       1.597876870105e+07       1.597810097756e+07       1.200539212442e+07       9.442993017597e+06 
       2.559360052864e-05       1.200394285966e+07       1.200394110215e+07       1.597735876028e+07       1.597665565880e+07       1.200537834364e+07       9.442989142629e+06 
       2.624680583802e-05       1.200393859761e+07       1.200393674929e+07       1.597591211259e+07       1.597517271384e+07       1.200536420298e+07       9.442985166532e+06 
       2.690018935332e-05       1.200393422701e+07       1.200393228557e+07       1.597442872801e+07       1.597365211211e+07       1.200534970207e+07       9.442981089203e+06 
       2.755375559371e-05       1.200392974773e+07       1.200392771086e+07       1.597290857579e+07       1.597209382224e+07       1.200533484052e+07       9.442976910540e+06 
       2.820750908251e-05       1.200392515966e+07       1.200392302504e+07       1.597135162443e+07       1.597049781208e+07       1.200531961795e+07       9.442972630435e+06 
       2.886145434727e-05       1.200392046267e+07       1.200391822799e+07       1.596975784163e+07       1.596886404867e+07       1.200530403393e+07       9.442968248778e+06 
       2.951559591991e-05       1.200391565665e+07       1.200391331959e+07       1.596812719435e+07       1.596719249828e+07       1.200528808805e+07       9.442963765458e+06 
       3.016993833678e-05       1.200391074147e+07       1.200390829970e+07       1.596645964875e+07       1.596548312640e+07       1.200527177990e+07       9.442959180360e+06 
       3.082448613880e-05       1.200390571698e+07       1.200390316819e+07       1.596475517022e+07       1.596373589769e+07       1.200525510902e+07       9.442954493367e+06 
       3.147924387154e-05       1.200390058308e+07       1.200389792493e+07       1.596301372338e+07       1.596195077606e+07       1.200523807497e+07       9.442949704358e+06 
       3.213421608535e-05       1.200389533960e+07       1.200389256978e+07       1.596123527207e+07       1.596012772461e+07       1.200522067729e+07       9.442944813212e+06 
       3.278940733546e-05       1.200388998643e+07       1.200388710259e+07       1.595941977935e+07       1.595826670563e+07       1.200520291553e+07       9.442939819802e+06 
       3.344482218204e-05       1.200388452341e+07       1.200388152323e+07       1.595756720749e+07       1.595636768065e+07       1.200518478920e+07       9.442934724001e+06 
       3.410046519039e-05       1.200387895041e+07       1.200387583154e+07       1.595567751801e+07       1.595443061036e+07       1.200516629781e+07       9.442929525677e+06 
       3.475634093096e-05       1.200387326726e+07       1.200387002737e+07       1.595375067162e+07       1.595245545470e+07       1.200514744087e+07       9.442924224698e+06 
       3.541245397951e-05       1.200386747383e+07       1.200386411058e+07       1.595178662825e+07       1.595044217278e+07       1.200512821788e+07       9.442918820928e+06 
       3.606880891720e-05       1.200386156996e+07       1.200385808100e+07       1.594978534707e+07       1.594839072292e+07       1.200510862830e+07       9.442913314227e+06 
       3.672541033069e-05       1.200385555550e+07       1.200385193847e+07       1.594774678643e+07       1.594630106264e+07       1.200508867163e+07       9.442907704454e+06 
       3.738226281227e-05       1.200384943027e+07       1.200384568284e+07       1.594567090393e+07       1.594417314866e+07       1.200506834731e+07       9.442901991465e+06 
       3.803937095992e-05       1.200384319413e+07       1.200383931393e+07       1.594355765637e+07       1.594200693689e+07       1.200504765481e+07       9.442896175113e+06 
       3.869673937747e-05       1.200383684690e+07       1.200383283158e+07       1.594140699974e+07       1.593980238245e+07       1.200502659356e+07       9.442890255249e+06 
       3.935437267467e-05       1.200383038842e+07       1.200382623561e+07       1.593921888928e+07       1.593755943965e+07       1.200500516300e+07       9.442884231719e+06 
       4.001227546732e-05       1.200382381851e+07       1.200381952585e+07       1.593699327940e+07       1.593527806198e+07       1.200498336255e+07       9.442878104368e+06 
       4.067045237736e-05       1.200381713700e+07       1.200381270213e+07       1.593473012376e+07       1.593295820214e+07       1.200496119162e+07       9.442871873040e+06 
       4.132890803299e-05       1.200381034371e+07       1.200380576425e+07       1.593242937518e+07       1.593059981201e+07       1.200493864961e+07       9.442865537572e+06 
       4.198764706876e-05       1.200380343846e+07       1.200379871204e+07       1.593009098574e+07       1.592820284268e+07       1.200491573592e+07       9.442859097803e+06 
       4.264667412571e-05       1.200379642107e+07       1.200379154531e+07       1.592771490667e+07       1.592576724441e+07       1.200489244991e+07       9.442852553564e+06 
       4.330599385144e-05       1.200378929135e+07       1.200378426387e+07       1.592530108845e+07       1.592329296664e+07       1.200486879097e+07       9.442845904688e+06 
       4.396561090026e-05       1.200378204910e+07       1.200377686752e+07       1.592284948073e+07       1.592077995803e+07       1.200484475846e+07       9.442839151003e+06 
       4.462552993326e-05       1.200377469414e+07       1.200376935607e+07       1.592036003238e+07       1.591822816638e+07       1.200482035171e+07       9.442832292333e+06 
       4.528575561844e-05       1.200376722627e+07       1.200376172931e+07       1.591783269145e+07       1.591563753872e+07       1.200479557008e+07       9.442825328503e+06 
       4.594629263082e-05       1.200375964528e+07       1.200375398704e+07       1.591526740521e+07       1.591300802122e+07       1.200477041289e+07       9.442818259331e+06 
       4.660714565253e-05       1.200375195099e+07       1.200374612906e+07       1.591266412012e+07       1.591033955926e+07       1.200474487945e+07       9.442811084634e+06 
       4.726831937296e-05       1.200374414317e+07       1.200373815516e+07       1.591002278182e+07       1.590763209740e+07       1.200471896908e+07       9.442803804227e+06 
       4.792981848882e-05       1.200373622162e+07       1.200373006512e+07       1.590734333516e+07       1.590488557935e+07       1.200469268107e+07       9.442796417921e+06 
       4.859164770428e-05       1.200372818613e+07       1.200372185873e+07       1.590462572419e+07       1.590209994803e+07       1.200466601470e+07       9.442788925525e+06 
       4.925381173108e-05       1.200372003649e+07       1.200371353576e+07       1.590186989212e+07       1.589927514551e+07       1.200463896925e+07       9.442781326843e+06 
       4.991631528865e-05       1.200371177247e+07       1.200370509600e+07       1.589907578138e+07       1.589641111305e+07       1.200461154399e+07       9.442773621679e+06 
       5.057916310418e-05       1.200370339385e+07       1.200369653922e+07       1.589624333357e+07       1.589350779107e+07       1.200458373817e+07       9.442765809833e+06 
       5.124235991278e-05       1.200369490041e+07       1.200368786518e+07       1.589337248949e+07       1.589056511916e+07       1.200455555103e+07       9.442757891102e+06 
       5.190591045756e-05       1.200368629192e+07       1.200367907366e+07       1.589046318912e+07       1.588758303611e+07       1.200452698180e+07       9.442749865279e+06 
       5.256981948976e-05       1.200367756815e+07       1.200367016443e+07       1.588751537160e+07       1.588456147982e+07       1.200449802970e+07       9.442741732157e+06 
       5.323409176885e-05       1.200366872886e+07       1.200366113723e+07       1.588452897530e+07       1.588150038742e+07       1.200446869395e+07       9.442733491522e+06 
       5.389873206264e-05       1.200365977381e+07       1.200365199183e+07       1.588150393772e+07       1.587839969514e+07       1.200443897374e+07       9.442725143162e+06 
       5.456374514741e-05       1.200365070277e+07       1.200364272799e+07       1.587844019558e+07       1.587525933844e+07       1.200440886826e+07       9.442716686857e+06 
       5.522913580803e-05       1.200364151549e+07       1.200363334545e+07       1.587533768474e+07       1.587207925188e+07       1.200437837669e+07       9.442708122388e+06 
       5.589490883802e-05       1.200363221172e+07       1.200362384396e+07       1.587219634027e+07       1.586885936921e+07       1.200434749819e+07       9.442699449531e+06 
       5.656106903973e-05       1.200362279121e+07       1.200361422327e+07       1.586901609638e+07       1.586559962334e+07       1.200431623192e+07       9.442690668059e+06 
       5.722762122441e-05       1.200361325371e+07       1.200360448311e+07       1.586579688648e+07       1.586229994633e+07       1.200428457702e+07       9.442681777744e+06 
       5.789457021235e-05       1.200360359895e+07       1.200359462323e+07       1.586253864314e+07       1.585896026939e+07       1.200425253262e+07       9.442672778353e+06 
       5.856192083299e-05       1.200359382668e+07       1.200358464336e+07       1.585924129808e+07       1.585558052288e+07       1.200422009784e+07       9.442663669650e+06 
       5.922967792499e-05       1.200358393664e+07       1.200357454322e+07       1.585590478222e+07       1.585216063633e+07       1.200418727180e+07       9.442654451398e+06 
       5.989784633644e-05       1.200357392854e+07       1.200356432255e+07       1.585252902562e+07       1.584870053840e+07       1.200415405359e+07       9.442645123354e+06 
       6.056643092489e-05       1.200356380214e+07       1.200355398106e+07       1.584911395752e+07       1.584520015689e+07       1.200412044230e+07       9.442635685274e+06 
       6.123543655749e-05       1.200355355714e+07       1.200354351849e+07       1.584565950630e+07       1.584165941878e+07       1.200408643700e+07       9.442626136912e+06 
       6.190486811114e-05       1.200354319327e+07       1.200353293454e+07       1.584216559951e+07       1.583807825015e+07       1.200405203676e+07       9.442616478016e+06 
       6.257473047255e-05       1.200353271025e+07       1.200352222893e+07       1.583863216388e+07       1.583445657626e+07       1.200401724063e+07       9.442606708332e+06 
       6.324502853841e-05       1.200352210779e+07       1.200351140137e+07       1.583505912526e+07       1.583079432149e+07       1.200398204765e+07       9.442596827605e+06 
       6.391576721547e-05       1.200351138561e+07       1.200350045157e+07       1.583144640866e+07       1.582709140935e+07       1.200394645685e+07       9.442586835573e+06 
       6.458695142069e-05       1.200350054342e+07       1.200348937922e+07       1.582779393827e+07       1.582334776251e+07       1.200391046724e+07       9.442576731976e+06 
       6.525858608131e-05       1.200348958091e+07       1.200347818403e+07       1.582410163740e+07       1.581956330275e+07       1.200387407784e+07       9.442566516546e+06 
       6.593067613504e-05       1.200347849780e+07       1.200346686569e+07       1.582036942852e+07       1.581573795101e+07       1.200383728763e+07       9.442556189015e+06 
       6.660322653011e-05       1.200346729377e+07       1.200345542389e+07       1.581659723325e+07       1.581187162733e+07       1.200380009561e+07       9.442545749110e+06 
       6.727624222542e-05       1.200345596852e+07       1.200344385833e+07       1.581278497234e+07       1.580796425090e+07       1.200376250073e+07       9.442535196556e+06 
       6.794972819066e-05       1.200344452175e+07       1.200343216869e+07       1.580893256569e+07       1.580401574002e+07       1.200372450195e+07       9.442524531074e+06 
       6.862368940644e-05       1.200343295314e+07       1.200342035465e+07       1.580503993236e+07       1.580002601213e+07       1.200368609823e+07       9.442513752383e+06 
       6.929813086438e-05       1.200342126237e+07       1.200340841588e+07       1.580110699051e+07       1.579599498378e+07       1.200364728850e+07       9.442502860198e+06 
       6.997305756726e-05       1.200340944912e+07       1.200339635206e+07       1.579713365747e+07       1.579192257065e+07       1.200360807167e+07       9.442491854231e+06 
       7.064847452913e-05       1.200339751308e+07       1.200338416287e+07       1.579311984968e+07       1.578780868753e+07       1.200356844666e+07       9.442480734191e+06 
       7.132438677542e-05       1.200338545390e+07       1.200337184796e+07       1.578906548272e+07       1.578365324834e+07       1.200352841237e+07       9.442469499782e+06 
